num crossings	time (s)	maj axis (mm)	min axis (mm)	theta (rad )	slope (V/s)
1193	1473.347309	75.994891	18.978204	2.598777	52.580173
1195	1475.406690	75.943524	19.012457	2.604470	50.265971
1199	1479.520944	75.625022	18.934422	2.604352	52.667408
1201	1481.582660	75.022304	19.038506	2.609157	52.553922
1203	1483.650174	74.785574	19.119086	2.623956	48.491163
1205	1485.714622	75.057260	19.035974	2.635530	51.389957
1207	1487.770823	75.248956	18.950438	2.635270	55.897204
1209	1489.825075	74.965392	18.958836	2.630877	54.939966
1213	1493.955009	74.098483	19.071227	2.647827	48.611985
1215	1496.018091	74.174701	18.995368	2.657504	49.297654
1217	1498.077831	74.232332	19.013056	2.663232	50.068017
1219	1500.136725	74.132016	19.018998	2.666623	49.140990
1221	1502.195003	73.964104	18.977303	2.670388	50.663441
1223	1504.254419	73.807657	18.946202	2.675189	50.535776
1227	1508.374805	73.402351	18.859329	2.686049	51.121120
1229	1510.436134	73.199808	18.805467	2.691730	54.734283
1233	1514.560246	72.837539	18.701880	2.698007	51.052150
1235	1516.622908	72.832653	18.644848	2.700852	50.851056
1237	1518.684647	72.900521	18.633828	2.704482	51.899181
1241	1522.799314	72.922467	18.651044	2.721336	48.264944
1243	1524.856467	72.611553	18.572676	2.731275	50.896556
1245	1526.918294	72.085139	18.437581	2.735786	49.401515
1247	1528.983448	71.835773	18.314476	2.733990	49.674816
1251	1533.108047	72.176418	18.329824	2.740055	47.446376
1253	1535.165237	72.212533	18.276432	2.748961	45.624185
1255	1537.222036	72.011882	18.200558	2.757489	46.007084
1257	1539.279810	71.791166	18.090620	2.763393	45.845836
1259	1541.339344	71.574405	17.988314	2.768421	47.568890
1263	1545.461223	71.358847	17.808078	2.776538	48.829566
1265	1547.521193	71.250185	17.715271	2.779620	50.274512
1269	1551.640935	71.033319	17.526900	2.785305	48.605679
1271	1553.701985	70.812839	17.436294	2.788704	47.518697
1273	1555.764440	70.592954	17.380711	2.794133	46.596993
1275	1557.829388	70.508858	17.333863	2.802116	46.094425
1277	1559.892857	70.477116	17.258924	2.810640	47.085091
1279	1561.953159	70.374576	17.151909	2.817653	49.305620
1281	1564.011060	70.516289	17.102194	2.818933	51.740269
1283	1566.066451	70.439412	16.977527	2.819015	49.788476
1287	1570.183734	70.022673	16.801867	2.821957	46.994694
1289	1572.246779	69.764590	16.731934	2.828740	47.182168
1291	1574.310370	69.713613	16.656263	2.836437	48.630316
1293	1576.373000	69.679976	16.569295	2.842293	47.129930
1295	1578.434491	69.616158	16.471877	2.846398	48.169683
1297	1580.495357	69.545988	16.407136	2.850095	47.915412
1299	1582.555077	69.492702	16.326104	2.853046	49.937273
1301	1584.615177	69.338136	16.251266	2.856503	49.297371
1303	1586.675435	69.289583	16.165020	2.859540	47.181014
1305	1588.735001	69.258424	16.083915	2.863363	49.810417
1309	1592.850836	69.179831	15.939927	2.873300	49.925544
1311	1594.907280	69.117442	15.847640	2.879929	48.170689
1313	1596.964981	68.917568	15.742738	2.886538	49.437050
1317	1601.087646	68.290110	15.461436	2.892660	49.693490
1319	1603.150986	68.151378	15.366797	2.892082	48.960459
1321	1605.213969	68.147072	15.295195	2.893648	49.697712
1325	1609.334219	68.285185	15.115917	2.901646	47.292590
1327	1611.392084	68.241846	15.033179	2.907079	46.732351
1331	1615.508262	67.997737	14.793671	2.915925	45.624335
1333	1617.566603	67.885204	14.673556	2.919416	48.211482
1335	1619.626076	67.789557	14.556318	2.922606	48.261057
1339	1623.745704	67.545750	14.306668	2.928558	48.176362
1341	1625.806576	67.393137	14.196397	2.931906	47.426427
1343	1627.868145	67.270275	14.081686	2.936033	47.604826
1347	1631.991980	67.088869	13.878210	2.945731	47.973263
1349	1634.053109	67.026221	13.780131	2.950106	48.856798
1351	1636.112330	66.981626	13.673031	2.953958	52.070741
1353	1638.170008	66.937724	13.566659	2.956140	48.623242
1355	1640.226857	66.925997	13.438270	2.957589	48.305524
1359	1644.340529	66.775153	13.207908	2.958592	51.753894
1361	1646.399611	66.627458	13.079722	2.960300	47.595290
1363	1648.460473	66.440004	12.971046	2.964035	48.150905
1365	1650.522559	66.304347	12.856948	2.968685	48.753837
1367	1652.584571	66.227145	12.746029	2.973202	46.009001
1369	1654.645602	66.187349	12.625383	2.976695	48.814259
1371	1656.706678	66.106536	12.505296	2.979641	46.775063
1375	1660.825675	66.125830	12.281646	2.985112	48.002054
1377	1662.884069	65.949801	12.149858	2.987203	47.010977
1379	1664.941898	65.914822	12.041822	2.990419	50.193190
1383	1669.055983	65.784845	11.807173	2.998503	45.810696
1385	1671.114675	65.661367	11.665000	3.002873	46.829507
1387	1673.173591	65.451890	11.534398	3.006394	48.377916
1389	1675.235311	65.204323	11.401556	3.008260	48.938882
1393	1679.359648	64.886950	11.178682	3.008990	49.515544
1395	1681.421242	64.879594	11.070639	3.010065	46.981791
1399	1685.541790	64.877137	10.867719	3.014920	47.995492
1401	1687.600882	64.831245	10.761947	3.018111	48.473486
1403	1689.660538	64.761155	10.650337	3.021319	46.615551
1407	1693.777694	64.589814	10.410577	3.027244	48.630572
1409	1695.836878	64.475686	10.287459	3.029892	47.554795
1411	1697.896638	64.366674	10.169381	3.032381	46.232259
1415	1702.016396	64.165113	9.939926	3.037953	47.977335
1417	1704.075905	64.076963	9.827604	3.040805	47.273123
1419	1706.136111	63.980560	9.708453	3.043546	48.438072
1423	1710.254592	63.832680	9.475526	3.048458	47.511946
1425	1712.312059	63.766264	9.356511	3.050339	46.479499
1429	1716.425638	63.719784	9.115600	3.052583	46.300940
1431	1718.482425	63.667743	8.997246	3.052823	46.074670
1435	1722.598704	63.460056	8.784657	3.053794	45.883001
1437	1724.658555	63.346893	8.664489	3.055496	46.329704
1439	1726.719276	63.217150	8.542794	3.058129	44.502939
1441	1728.780552	63.106731	8.425945	3.060805	46.762227
1443	1730.841001	63.006363	8.295146	3.063267	45.299637
1445	1732.900428	62.951489	8.171982	3.065411	46.615785
1447	1734.959461	62.880679	8.051649	3.067259	46.291531
1449	1737.019045	62.843356	7.923771	3.068920	48.277828
1451	1739.076940	62.789282	7.801621	3.070842	45.648971
1453	1741.134827	62.765927	7.678069	3.073204	47.559948
1455	1743.192173	62.688087	7.559900	3.075382	43.939989
1457	1745.249834	62.637437	7.433479	3.078777	45.237038
1459	1747.308019	62.466532	7.293638	3.081563	46.069635
1461	1749.367197	62.311891	7.159071	3.083576	46.173516
1465	1753.489327	61.916034	6.900870	3.085017	46.892111
1467	1755.550261	61.777531	6.779178	3.085264	45.386084
1471	1759.672354	61.658504	6.567995	3.086247	44.389654
1473	1761.732104	61.576779	6.442351	3.087250	46.808920
1475	1763.792000	61.544650	6.331830	3.088785	45.161112
1479	1767.910477	61.392627	6.100486	3.092453	45.312182
1481	1769.969657	61.319451	5.988594	3.094061	44.883135
1483	1772.028740	61.234416	5.868933	3.095712	44.191238
1487	1776.146737	61.064772	5.643111	3.099283	43.624186
1489	1778.205518	60.969715	5.529491	3.101110	43.743095
1493	1782.322533	60.799559	5.302189	3.104145	44.281876
